[Name]
Series 1 at /LINE:Line 1

[Data]
X [ m ],Pressure [ Pa ]
0.00000000e+000, 8.03531250e+005
9.99999978e-003, 8.03238063e+005
1.99999996e-002, 8.02944938e+005
2.99999993e-002, 8.02651813e+005
3.99999991e-002, 8.02358625e+005
4.99999970e-002, 8.02065438e+005
5.99999949e-002, 8.01772375e+005
6.99999928e-002, 8.01479188e+005
7.99999908e-002, 8.01186063e+005
8.99999887e-002, 8.00892875e+005
9.99999866e-002, 8.00599750e+005
1.09999985e-001, 8.00045250e+005
1.19999982e-001, 7.99490750e+005
1.29999980e-001, 7.98936250e+005
1.39999986e-001, 7.98381813e+005
1.49999991e-001, 7.97827375e+005
1.59999996e-001, 7.97272813e+005
1.70000002e-001, 7.96718375e+005
1.80000007e-001, 7.96163875e+005
1.90000013e-001, 7.95609438e+005
2.00000018e-001, 7.95054938e+005
2.10000023e-001, 7.94433688e+005
2.20000029e-001, 7.93812313e+005
2.30000034e-001, 7.93191063e+005
2.40000039e-001, 7.92569688e+005
2.50000030e-001, 7.91948500e+005
2.60000020e-001, 7.91327125e+005
2.70000011e-001, 7.90705813e+005
2.80000001e-001, 7.90084563e+005
2.89999992e-001, 7.89463188e+005
2.99999982e-001, 7.88841938e+005
3.09999973e-001, 7.87900000e+005
3.19999963e-001, 7.86958125e+005
3.29999954e-001, 7.86016188e+005
3.39999944e-001, 7.85074250e+005
3.49999934e-001, 7.84132313e+005
3.59999925e-001, 7.83190438e+005
3.69999915e-001, 7.82248438e+005
3.79999906e-001, 7.81306563e+005
3.89999896e-001, 7.80364563e+005
3.99999887e-001, 7.79422750e+005
4.09999877e-001, 7.77985375e+005
4.19999868e-001, 7.76548063e+005
4.29999858e-001, 7.75110688e+005
4.39999849e-001, 7.73673500e+005
4.49999839e-001, 7.72236125e+005
4.59999830e-001, 7.70798750e+005
4.69999820e-001, 7.69361438e+005
4.79999810e-001, 7.67924188e+005
4.89999801e-001, 7.66486875e+005
4.99999791e-001, 7.65049563e+005
5.09999812e-001, 7.62680188e+005
5.19999802e-001, 7.60310688e+005
5.29999793e-001, 7.57941313e+005
5.39999783e-001, 7.55571938e+005
5.49999774e-001, 7.53202625e+005
5.59999764e-001, 7.50833188e+005
5.69999754e-001, 7.48463750e+005
5.79999745e-001, 7.46094438e+005
5.89999735e-001, 7.43725000e+005
5.99999726e-001, 7.41355625e+005
6.09999716e-001, 7.37321813e+005
6.19999707e-001, 7.33287938e+005
6.29999697e-001, 7.29254063e+005
6.39999688e-001, 7.25220188e+005
6.49999678e-001, 7.21186375e+005
6.59999669e-001, 7.17152500e+005
6.69999659e-001, 7.13118625e+005
6.79999650e-001, 7.09084750e+005
6.89999640e-001, 7.05050813e+005
6.99999630e-001, 7.01017000e+005
7.09999621e-001, 6.94298375e+005
7.19999611e-001, 6.87579688e+005
7.29999602e-001, 6.80860875e+005
7.39999592e-001, 6.74142250e+005
7.49999583e-001, 6.67423438e+005
7.59999573e-001, 6.60704750e+005
7.69999564e-001, 6.53986000e+005
7.79999554e-001, 6.47267250e+005
7.89999545e-001, 6.40548563e+005
7.99999535e-001, 6.33829750e+005
8.09999526e-001, 6.23928750e+005
8.19999516e-001, 6.14027563e+005
8.29999506e-001, 6.04126250e+005
8.39999497e-001, 5.94225000e+005
8.49999487e-001, 5.84323813e+005
8.59999478e-001, 5.74422625e+005
8.69999468e-001, 5.64521375e+005
8.79999459e-001, 5.54620125e+005
8.89999449e-001, 5.44718938e+005
8.99999440e-001, 5.34817563e+005
9.09999430e-001, 5.23177438e+005
9.19999421e-001, 5.11537063e+005
9.29999411e-001, 4.99896719e+005
9.39999402e-001, 4.88256375e+005
9.49999392e-001, 4.76615938e+005
9.59999382e-001, 4.64975031e+005
9.69999373e-001, 4.53334875e+005
9.79999363e-001, 4.41694656e+005
9.89999354e-001, 4.30054500e+005
9.99999344e-001, 4.18414250e+005
1.00999939e+000, 4.09021469e+005
1.01999938e+000, 3.99630875e+005
1.02999938e+000, 3.90240219e+005
1.03999937e+000, 3.80849594e+005
1.04999936e+000, 3.71458938e+005
1.05999935e+000, 3.62068281e+005
1.06999934e+000, 3.52677594e+005
1.07999933e+000, 3.43286969e+005
1.08999932e+000, 3.33896344e+005
1.09999931e+000, 3.24505656e+005
1.10999930e+000, 3.17896906e+005
1.11999929e+000, 3.11288531e+005
1.12999928e+000, 3.04680188e+005
1.13999927e+000, 2.98071250e+005
1.14999926e+000, 2.91463000e+005
1.15999925e+000, 2.84854750e+005
1.16999924e+000, 2.78246469e+005
1.17999923e+000, 2.71638188e+005
1.18999922e+000, 2.65029938e+005
1.19999921e+000, 2.58421703e+005
1.20999920e+000, 2.52658734e+005
1.21999919e+000, 2.46895969e+005
1.22999918e+000, 2.41133234e+005
1.23999918e+000, 2.35370500e+005
1.24999917e+000, 2.29607719e+005
1.25999916e+000, 2.23844969e+005
1.26999915e+000, 2.18082203e+005
1.27999914e+000, 2.12319469e+005
1.28999913e+000, 2.06556703e+005
1.29999912e+000, 2.00794094e+005
1.30999911e+000, 1.95991500e+005
1.31999910e+000, 1.91189141e+005
1.32999909e+000, 1.86386750e+005
1.33999908e+000, 1.81584391e+005
1.34999907e+000, 1.76782016e+005
1.35999906e+000, 1.71979656e+005
1.36999905e+000, 1.67177406e+005
1.37999904e+000, 1.62374969e+005
1.38999903e+000, 1.57572516e+005
1.39999902e+000, 1.52770250e+005
1.40999901e+000, 1.48566031e+005
1.41999900e+000, 1.44361969e+005
1.42999899e+000, 1.40157906e+005
1.43999898e+000, 1.35953844e+005
1.44999897e+000, 1.31749766e+005
1.45999897e+000, 1.27545719e+005
1.46999896e+000, 1.23341656e+005
1.47999895e+000, 1.19137719e+005
1.48999894e+000, 1.14933516e+005
1.49999893e+000, 1.10729563e+005
1.50999892e+000, 1.07090188e+005
1.51999891e+000, 1.03450953e+005
1.52999890e+000, 9.98117344e+004
1.53999889e+000, 9.61725078e+004
1.54999888e+000, 9.25332656e+004
1.55999887e+000, 8.88940469e+004
1.56999886e+000, 8.52548125e+004
1.57999885e+000, 8.16157500e+004
1.58999884e+000, 7.79763438e+004
1.59999883e+000, 7.43371875e+004
1.60999882e+000, 7.13308672e+004
1.61999881e+000, 6.83246875e+004
1.62999880e+000, 6.53185000e+004
1.63999879e+000, 6.23123164e+004
1.64999878e+000, 5.93061328e+004
1.65999877e+000, 5.62999492e+004
1.66999876e+000, 5.32937656e+004
1.67999876e+000, 5.02877969e+004
1.68999875e+000, 4.72813984e+004
1.69999874e+000, 4.42752617e+004
1.70999873e+000, 4.17707500e+004
1.71999872e+000, 3.92663516e+004
1.72999871e+000, 3.67619531e+004
1.73999870e+000, 3.42575547e+004
1.74999869e+000, 3.17531582e+004
1.75999868e+000, 2.92487578e+004
1.76999867e+000, 2.67443613e+004
1.77999866e+000, 2.42401797e+004
1.78999865e+000, 2.17355645e+004
1.79999864e+000, 1.92312012e+004
1.80999863e+000, 1.71457480e+004
1.81999862e+000, 1.50603867e+004
1.82999861e+000, 1.29750225e+004
1.83999860e+000, 1.08896602e+004
1.84999859e+000, 8.80429785e+003
1.85999858e+000, 6.71893506e+003
1.86999857e+000, 4.63357324e+003
1.87999856e+000, 2.54841284e+003
1.88999856e+000, 4.62847565e+002
1.89999855e+000, -1.62249146e+003
1.90999854e+000, -3.10378735e+003
1.91999853e+000, -4.58496240e+003
1.92999852e+000, -6.06614404e+003
1.93999851e+000, -7.54733301e+003
1.94999850e+000, -9.02851270e+003
1.95999849e+000, -1.05096904e+004
1.96999848e+000, -1.19908721e+004
1.97999847e+000, -1.34720566e+004
1.98999846e+000, -1.49532383e+004
1.99999845e+000, -1.64344219e+004


