[Name]
Series 1 at /LINE:Line 1

[Data]
X [ m ],Temperature [ K ]
0.00000000e+000, 3.09370789e+002
9.99999978e-003, 3.09335999e+002
1.99999996e-002, 3.09301147e+002
2.99999993e-002, 3.09266357e+002
3.99999991e-002, 3.09231537e+002
4.99999970e-002, 3.09196716e+002
5.99999949e-002, 3.09161926e+002
6.99999928e-002, 3.09127106e+002
7.99999908e-002, 3.09092255e+002
8.99999887e-002, 3.09057465e+002
9.99999866e-002, 3.09022644e+002
1.09999985e-001, 3.08976166e+002
1.19999982e-001, 3.08929688e+002
1.29999980e-001, 3.08883270e+002
1.39999986e-001, 3.08836792e+002
1.49999991e-001, 3.08790314e+002
1.59999996e-001, 3.08743835e+002
1.70000002e-001, 3.08697418e+002
1.80000007e-001, 3.08650909e+002
1.90000013e-001, 3.08604462e+002
2.00000018e-001, 3.08558014e+002
2.10000023e-001, 3.08497559e+002
2.20000029e-001, 3.08437103e+002
2.30000034e-001, 3.08376648e+002
2.40000039e-001, 3.08316162e+002
2.50000030e-001, 3.08255707e+002
2.60000020e-001, 3.08195251e+002
2.70000011e-001, 3.08134827e+002
2.80000001e-001, 3.08074341e+002
2.89999992e-001, 3.08013855e+002
2.99999982e-001, 3.07953430e+002
3.09999973e-001, 3.07864685e+002
3.19999963e-001, 3.07775970e+002
3.29999954e-001, 3.07687256e+002
3.39999944e-001, 3.07598511e+002
3.49999934e-001, 3.07509766e+002
3.59999925e-001, 3.07421082e+002
3.69999915e-001, 3.07332336e+002
3.79999906e-001, 3.07243561e+002
3.89999896e-001, 3.07154846e+002
3.99999887e-001, 3.07066132e+002
4.09999877e-001, 3.06926575e+002
4.19999868e-001, 3.06787018e+002
4.29999858e-001, 3.06647400e+002
4.39999849e-001, 3.06507843e+002
4.49999839e-001, 3.06368286e+002
4.59999830e-001, 3.06228699e+002
4.69999820e-001, 3.06089142e+002
4.79999810e-001, 3.05949585e+002
4.89999801e-001, 3.05809998e+002
4.99999791e-001, 3.05670410e+002
5.09999812e-001, 3.05422974e+002
5.19999802e-001, 3.05175568e+002
5.29999793e-001, 3.04928101e+002
5.39999783e-001, 3.04680664e+002
5.49999774e-001, 3.04433197e+002
5.59999764e-001, 3.04185791e+002
5.69999754e-001, 3.03938324e+002
5.79999745e-001, 3.03690887e+002
5.89999735e-001, 3.03443481e+002
5.99999726e-001, 3.03196014e+002
6.09999716e-001, 3.02731689e+002
6.19999707e-001, 3.02267395e+002
6.29999697e-001, 3.01803101e+002
6.39999688e-001, 3.01338776e+002
6.49999678e-001, 3.00874512e+002
6.59999669e-001, 3.00410187e+002
6.69999659e-001, 2.99945862e+002
6.79999650e-001, 2.99481567e+002
6.89999640e-001, 2.99017273e+002
6.99999630e-001, 2.98552979e+002
7.09999621e-001, 2.97728821e+002
7.19999611e-001, 2.96904663e+002
7.29999602e-001, 2.96080475e+002
7.39999592e-001, 2.95256287e+002
7.49999583e-001, 2.94432098e+002
7.59999573e-001, 2.93607971e+002
7.69999564e-001, 2.92783783e+002
7.79999554e-001, 2.91959625e+002
7.89999545e-001, 2.91135406e+002
7.99999535e-001, 2.90311279e+002
8.09999526e-001, 2.89043762e+002
8.19999516e-001, 2.87776215e+002
8.29999506e-001, 2.86508667e+002
8.39999497e-001, 2.85241089e+002
8.49999487e-001, 2.83973572e+002
8.59999478e-001, 2.82705994e+002
8.69999468e-001, 2.81438446e+002
8.79999459e-001, 2.80170898e+002
8.89999449e-001, 2.78903320e+002
8.99999440e-001, 2.77635620e+002
9.09999430e-001, 2.76019836e+002
9.19999421e-001, 2.74403870e+002
9.29999411e-001, 2.72787903e+002
9.39999402e-001, 2.71171906e+002
9.49999392e-001, 2.69555908e+002
9.59999382e-001, 2.67939850e+002
9.69999373e-001, 2.66323914e+002
9.79999363e-001, 2.64707916e+002
9.89999354e-001, 2.63091980e+002
9.99999344e-001, 2.61476044e+002
1.00999939e+000, 2.60025177e+002
1.01999938e+000, 2.58574554e+002
1.02999938e+000, 2.57123871e+002
1.03999937e+000, 2.55673218e+002
1.04999936e+000, 2.54222504e+002
1.05999935e+000, 2.52771866e+002
1.06999934e+000, 2.51321121e+002
1.07999933e+000, 2.49870438e+002
1.08999932e+000, 2.48419724e+002
1.09999931e+000, 2.46969070e+002
1.10999930e+000, 2.45795227e+002
1.11999929e+000, 2.44621399e+002
1.12999928e+000, 2.43447601e+002
1.13999927e+000, 2.42274261e+002
1.14999926e+000, 2.41100372e+002
1.15999925e+000, 2.39926498e+002
1.16999924e+000, 2.38752563e+002
1.17999923e+000, 2.37578674e+002
1.18999922e+000, 2.36404800e+002
1.19999921e+000, 2.35231003e+002
1.20999920e+000, 2.34081696e+002
1.21999919e+000, 2.32932434e+002
1.22999918e+000, 2.31783173e+002
1.23999918e+000, 2.30633881e+002
1.24999917e+000, 2.29484619e+002
1.25999916e+000, 2.28335358e+002
1.26999915e+000, 2.27186539e+002
1.27999914e+000, 2.26037048e+002
1.28999913e+000, 2.24887512e+002
1.29999912e+000, 2.23738281e+002
1.30999911e+000, 2.22652542e+002
1.31999910e+000, 2.21566833e+002
1.32999909e+000, 2.20481125e+002
1.33999908e+000, 2.19395416e+002
1.34999907e+000, 2.18309692e+002
1.35999906e+000, 2.17223999e+002
1.36999905e+000, 2.16138931e+002
1.37999904e+000, 2.15052902e+002
1.38999903e+000, 2.13966858e+002
1.39999902e+000, 2.12881180e+002
1.40999901e+000, 2.11798874e+002
1.41999900e+000, 2.10716599e+002
1.42999899e+000, 2.09634308e+002
1.43999898e+000, 2.08552002e+002
1.44999897e+000, 2.07469727e+002
1.45999897e+000, 2.06387436e+002
1.46999896e+000, 2.05305145e+002
1.47999895e+000, 2.04223267e+002
1.48999894e+000, 2.03140549e+002
1.49999893e+000, 2.02058319e+002
1.50999892e+000, 2.00994141e+002
1.51999891e+000, 1.99930008e+002
1.52999890e+000, 1.98865906e+002
1.53999889e+000, 1.97801788e+002
1.54999888e+000, 1.96737640e+002
1.55999887e+000, 1.95673523e+002
1.56999886e+000, 1.94609375e+002
1.57999885e+000, 1.93545761e+002
1.58999884e+000, 1.92481110e+002
1.59999883e+000, 1.91417023e+002
1.60999882e+000, 1.90407883e+002
1.61999881e+000, 1.89398773e+002
1.62999880e+000, 1.88389679e+002
1.63999879e+000, 1.87380569e+002
1.64999878e+000, 1.86371475e+002
1.65999877e+000, 1.85362366e+002
1.66999876e+000, 1.84353271e+002
1.67999876e+000, 1.83344711e+002
1.68999875e+000, 1.82335052e+002
1.69999874e+000, 1.81325958e+002
1.70999873e+000, 1.80372147e+002
1.71999872e+000, 1.79418335e+002
1.72999871e+000, 1.78464523e+002
1.73999870e+000, 1.77510727e+002
1.74999869e+000, 1.76556915e+002
1.75999868e+000, 1.75603119e+002
1.76999867e+000, 1.74649323e+002
1.77999866e+000, 1.73696060e+002
1.78999865e+000, 1.72741684e+002
1.79999864e+000, 1.71787888e+002
1.80999863e+000, 1.70851578e+002
1.81999862e+000, 1.69915268e+002
1.82999861e+000, 1.68978958e+002
1.83999860e+000, 1.68042648e+002
1.84999859e+000, 1.67106354e+002
1.85999858e+000, 1.66170044e+002
1.86999857e+000, 1.65233734e+002
1.87999856e+000, 1.64298126e+002
1.88999856e+000, 1.63361099e+002
1.89999855e+000, 1.62424805e+002
1.90999854e+000, 1.61656555e+002
1.91999853e+000, 1.60888321e+002
1.92999852e+000, 1.60120087e+002
1.93999851e+000, 1.59351837e+002
1.94999850e+000, 1.58583618e+002
1.95999849e+000, 1.57815384e+002
1.96999848e+000, 1.57047150e+002
1.97999847e+000, 1.56278931e+002
1.98999846e+000, 1.55510681e+002
1.99999845e+000, 1.54742447e+002


